R.Time (min),Intensity,MW_PEG,normalized RI
10.0,-1,244809491.4770949,0.0023328149300155523
10.00833,0,226066369.0678556,0.002527216174183515
10.01667,0,208862047.9345492,0.002527216174183515
10.025,0,193098883.00596377,0.002527216174183515
10.03333,-1,178629686.84866405,0.0023328149300155523
10.04167,2,165325320.1823346,0.00291601866251944
10.05,9,153114370.15191156,0.0042768273716951785
10.05833,9,141886574.17771623,0.0042768273716951785
10.06667,10,131545062.97972281,0.004471228615863142
10.075,5,122037391.20438288,0.003499222395023328
10.08333,-1,113280520.37939933,0.0023328149300155523
10.09167,-4,105201404.82662031,0.001749611197511664
10.1,-6,97761375.06316319,0.0013608087091757388
10.10833,-7,90897569.55761358,0.0011664074650077762
10.11667,-6,84554622.10898146,0.0013608087091757388
10.125,-11,78703911.78220958,0.00038880248833592535
10.13333,-13,73297607.93678287,0.0
10.14167,-1,68293531.37698273,0.0023328149300155523
10.15,1,63670421.60390154,0.0027216174183514776
10.15833,1,59391701.88418152,0.0027216174183514776
10.16667,0,55425078.54353541,0.002527216174183515
10.175,-1,51754704.34957619,0.0023328149300155523
10.18333,-2,48352470.42102826,0.0021384136858475893
10.19167,-2,45193530.266824685,0.0021384136858475893
10.2,-3,42266033.42468907,0.0019440124416796269
10.20833,-2,39548273.62675738,0.0021384136858475893
10.21667,-2,37021041.882985875,0.0021384136858475893
10.225,-3,34675449.7620659,0.0019440124416796269
10.23333,-3,32494655.276677117,0.0019440124416796269
10.24167,-4,30463737.360750485,0.001749611197511664
10.25,-4,28576010.68983851,0.001749611197511664
10.25833,-3,26818346.2454174,0.0019440124416796269
10.26667,-3,25179099.666889258,0.0019440124416796269
10.275,-3,23653229.926850706,0.0019440124416796269
10.28333,-3,22230455.28319827,0.0019440124416796269
10.29167,-2,20901646.865280073,0.0021384136858475893
10.3,-2,19662994.917275466,0.0021384136858475893
10.30833,-2,18506411.051037826,0.0021384136858475893
10.31667,-2,17424706.245218202,0.0021384136858475893
10.325,-2,16414995.62030581,0.0021384136858475893
10.33333,-2,15470887.953888306,0.0021384136858475893
10.34167,-2,14586696.81078507,0.0021384136858475893
10.35,-2,13760234.088900954,0.0021384136858475893
10.35833,-2,12986427.557837559,0.0021384136858475893
10.36667,-2,12260759.75275634,0.0021384136858475893
10.375,-2,11581568.957680298,0.0021384136858475893
10.38333,-2,10944812.4493414,0.0021384136858475893
10.39167,-2,10346886.09179233,0.0021384136858475893
10.4,-2,9786526.85415634,0.0021384136858475893
10.40833,-2,9260498.974994294,0.0021384136858475893
10.41667,-2,8765914.920334,0.0021384136858475893
10.425,-4,8301814.336969941,0.001749611197511664
10.43333,-4,7865596.619860135,0.001749611197511664
10.44167,-3,7454938.813401461,0.0019440124416796269
10.45,-3,7069110.844887628,0.0019440124416796269
10.45833,-4,6706014.083002325,0.001749611197511664
10.46667,-3,6363772.1880969405,0.0019440124416796269
10.475,-4,6041830.619057916,0.001749611197511664
10.48333,-4,5738489.055689763,0.001749611197511664
10.49167,-4,5452225.871574143,0.001749611197511664
10.5,-4,5182620.542030852,0.001749611197511664
10.50833,-5,4928290.050198249,0.0015552099533437014
10.51667,-5,4687995.598068554,0.0015552099533437014
10.525,-5,4461419.11724264,0.0015552099533437014
10.53333,-5,4247431.341438853,0.0015552099533437014
10.54167,-5,4045019.854453488,0.0015552099533437014
10.55,-5,3853944.9946964253,0.0015552099533437014
10.55833,-5,3673281.1954433704,0.0015552099533437014
10.56667,-5,3502197.9282556963,0.0015552099533437014
10.575,-5,3340515.571802823,0.0015552099533437014
10.58333,-5,3187472.691885318,0.0015552099533437014
10.59167,-4,3042385.4430772373,0.001749611197511664
10.6,-4,2905120.189694855,0.001749611197511664
10.60833,-3,2775048.234484232,0.0019440124416796269
10.61667,-3,2651604.4570113434,0.0019440124416796269
10.625,-2,2534690.4327919325,0.0021384136858475893
10.63333,-2,2423785.1987372953,0.0021384136858475893
10.64167,-1,2318420.075596833,0.0023328149300155523
10.65,-2,2218523.577167236,0.0021384136858475893
10.65833,-1,2123662.4912742083,0.0023328149300155523
10.66667,-2,2033446.7550999601,0.0021384136858475893
10.675,-1,1947825.460083294,0.0023328149300155523
10.68333,-2,1866437.1171045708,0.0021384136858475893
10.69167,-3,1788955.9717360337,0.0019440124416796269
10.7,-3,1715346.797394542,0.0019440124416796269
10.70833,-4,1645306.9280931528,0.001749611197511664
10.71667,-4,1578563.3929856934,0.001749611197511664
10.725,-3,1515092.8763887214,0.0019440124416796269
10.73333,-3,1454641.1176923276,0.0019440124416796269
10.74167,-2,1396978.615098485,0.0021384136858475893
10.75,-3,1342091.0578225676,0.0019440124416796269
10.75833,-3,1289764.1491806048,0.0019440124416796269
10.76667,-3,1239804.3032609927,0.0019440124416796269
10.775,-4,1192203.9745781105,0.001749611197511664
10.78333,-4,1146781.9678929981,0.001749611197511664
10.79167,-2,1103374.4681889047,0.0021384136858475893
10.8,-2,1061978.9699602663,0.0021384136858475893
10.80833,-2,1022441.7824953941,0.0021384136858475893
10.81667,-1,984623.8462912182,0.0023328149300155523
10.825,-2,948526.3678048954,0.0021384136858475893
10.83333,-2,914018.5816614591,0.0021384136858475893
10.84167,-2,880982.0774628369,0.0021384136858475893
10.85,-3,849420.7529844812,0.0019440124416796269
10.85833,-2,819223.0099438897,0.0021384136858475893
10.86667,-2,790287.7144565684,0.0021384136858475893
10.875,-2,762620.6729132233,0.0021384136858475893
10.88333,-2,736126.3602117584,0.0021384136858475893
10.89167,-1,710718.1406325701,0.0023328149300155523
10.9,-1,686403.1307721656,0.0023328149300155523
10.90833,-1,663099.324060375,0.0023328149300155523
10.91667,-1,640732.2872422757,0.0023328149300155523
10.925,-1,619309.991543467,0.0023328149300155523
10.93333,0,598761.8332832125,0.002527216174183515
10.94167,0,579023.6792263846,0.002527216174183515
10.95,1,560104.0102855259,0.0027216174183514776
10.95833,0,541941.8685428918,0.002527216174183515
10.96667,0,524481.8396162173,0.002527216174183515
10.975,0,507732.6548872995,0.002527216174183515
10.98333,0,491641.53863796935,0.002527216174183515
10.99167,-1,476160.477513073,0.0023328149300155523
11.0,-1,461298.2604317582,0.0023328149300155523
11.00833,-1,447009.0714399256,0.0023328149300155523
11.01667,-1,433251.1967690159,0.0023328149300155523
11.025,0,420033.34117999056,0.002527216174183515
11.03333,0,407315.6246353076,0.002527216174183515
11.04167,0,395061.70984734746,0.002527216174183515
11.05,1,383280.11522630166,0.0027216174183514776
11.05833,1,371936.03680608835,0.0027216174183514776
11.06667,1,360997.73805915186,0.0027216174183514776
11.075,0,350473.4792132462,0.002527216174183515
11.08333,0,340332.8083563723,0.002527216174183515
11.09167,1,330547.9361131914,0.0027216174183514776
11.1,1,321126.8159659939,0.0027216174183514776
11.10833,2,312042.73680474056,0.00291601866251944
11.11667,2,303271.3042777861,0.00291601866251944
11.125,2,294820.1342656973,0.00291601866251944
11.13333,1,286665.7391099378,0.0027216174183514776
11.14167,2,278786.65186605626,0.00291601866251944
11.15,2,271190.1333838761,0.00291601866251944
11.15833,2,263855.4804661015,0.00291601866251944
11.16667,3,256763.75655287676,0.003110419906687403
11.175,2,249921.86010000503,0.00291601866251944
11.18333,2,243311.49895716825,0.00291601866251944
11.19167,2,236915.92903133444,0.00291601866251944
11.2,2,230741.68649025503,0.00291601866251944
11.20833,1,224772.57182793296,0.0027216174183514776
11.21667,1,218993.74510940188,0.0027216174183514776
11.225,1,213411.38577930274,0.0027216174183514776
11.23333,2,208011.11483116818,0.00291601866251944
11.24167,1,202779.74991958763,0.0027216174183514776
11.25,2,197723.1232354756,0.00291601866251944
11.25833,1,192828.443120007,0.0027216174183514776
11.26667,0,188083.97345895553,0.002527216174183515
11.275,0,183495.2113599279,0.002527216174183515
11.28333,1,179050.75231313583,0.0027216174183514776
11.29167,1,174740.12483391073,0.0027216174183514776
11.3,2,170568.50491346666,0.00291601866251944
11.30833,2,166525.70289046163,0.00291601866251944
11.31667,3,162602.35553541116,0.003110419906687403
11.325,3,158803.3327735406,0.003110419906687403
11.33333,3,155119.51118246344,0.003110419906687403
11.34167,3,151542.50083055062,0.003110419906687403
11.35,3,148076.88119397798,0.003110419906687403
11.35833,3,144714.46662811833,0.003110419906687403
11.36667,3,141447.72377606557,0.003110419906687403
11.375,3,138280.95744727715,0.003110419906687403
11.38333,2,135206.80849739414,0.00291601866251944
11.39167,2,132218.49897555163,0.00291601866251944
11.4,1,129320.0746840052,0.0027216174183514776
11.40833,1,126504.90637957632,0.0027216174183514776
11.41667,2,123766.88364825145,0.00291601866251944
11.425,2,121109.80860560108,0.00291601866251944
11.43333,2,118527.69788610289,0.00291601866251944
11.44167,2,116015.03213436122,0.00291601866251944
11.45,3,113575.38461756296,0.003110419906687403
11.45833,2,111203.34460983299,0.00291601866251944
11.46667,3,108893.91711797436,0.003110419906687403
11.475,3,106650.4608120618,0.003110419906687403
11.48333,3,104468.07364201658,0.003110419906687403
11.49167,3,102342.22669885088,0.003110419906687403
11.5,2,100276.07765244851,0.00291601866251944
11.50833,2,98265.17715963784,0.00291601866251944
11.51667,3,96305.41136919135,0.003110419906687403
11.525,2,94399.74985959129,0.00291601866251944
11.53333,3,92544.14692502738,0.003110419906687403
11.54167,3,90734.85901159975,0.003110419906687403
11.55,4,88974.6798108682,0.0033048211508553654
11.55833,4,87259.92415203749,0.0033048211508553654
11.56667,5,85587.17944126914,0.003499222395023328
11.575,4,83959.07498176511,0.0033048211508553654
11.58333,5,82372.24820790483,0.003499222395023328
11.59167,5,80823.58285228876,0.003499222395023328
11.6,6,79315.55462968211,0.0036936236391912907
11.60833,5,77845.09014414765,0.003499222395023328
11.61667,5,76409.33890320658,0.003499222395023328
11.625,5,75010.63316151625,0.003499222395023328
11.63333,5,73646.15916013374,0.003499222395023328
11.64167,4,72313.3051882782,0.0033048211508553654
11.65,4,71014.26951376184,0.0033048211508553654
11.65833,3,69746.47189097288,0.003110419906687403
11.66667,4,68507.51549512717,0.0033048211508553654
11.675,4,67299.47345966764,0.0033048211508553654
11.68333,5,66119.9758987238,0.003499222395023328
11.69167,4,64966.819687735006,0.0033048211508553654
11.7,5,63841.96108440052,0.003499222395023328
11.70833,5,62743.22001124835,0.003499222395023328
11.71667,4,61668.56822624586,0.0033048211508553654
11.725,5,60619.85281040467,0.003499222395023328
11.73333,5,59595.065220431716,0.003499222395023328
11.74167,5,58592.335356082105,0.003499222395023328
11.75,6,57613.408294356785,0.0036936236391912907
11.75833,5,56656.430749712315,0.003499222395023328
11.76667,5,55719.67584830143,0.003499222395023328
11.775,6,54804.793337027695,0.0036936236391912907
11.78333,7,53910.070672082904,0.0038880248833592537
11.79167,7,53033.910892345215,0.0038880248833592537
11.8,8,52177.87462617056,0.004082426127527216
11.80833,8,51340.37710130681,0.004082426127527216
11.81667,8,50519.939369752465,0.004082426127527216
11.825,9,49718.0387184173,0.0042768273716951785
11.83333,9,48933.2065406989,0.0042768273716951785
11.84167,10,48164.07124972789,0.004471228615863142
11.85,11,47412.03216159493,0.004665629860031105
11.85833,13,46675.726437318146,0.00505443234836703
11.86667,13,45953.88029893709,0.00505443234836703
11.875,14,45247.82008701288,0.005248833592534992
11.88333,15,44556.27939679879,0.005443234836702955
11.89167,16,43878.073683642884,0.005637636080870917
11.9,18,43214.460955880495,0.0060264385692068425
11.90833,20,42564.26285527402,0.006415241057542769
11.91667,22,41926.37635969879,0.006804043545878694
11.925,23,41301.99546193106,0.006998444790046656
11.93333,26,40690.02230110822,0.007581648522550544
11.94167,28,40089.42843463254,0.00797045101088647
11.95,30,39501.34785263033,0.008359253499222395
11.95833,34,38924.75638918416,0.009136858475894245
11.96667,36,38358.693919955076,0.009525660964230171
11.975,41,37804.23816421556,0.010497667185069984
11.98333,44,37260.43251132496,0.011080870917573872
11.99167,48,36726.37950198604,0.011858475894245723
12.0,52,36203.10405585584,0.012636080870917573
12.00833,58,35689.71156900272,0.01380248833592535
12.01667,63,35185.362135876916,0.014774494556765163
12.025,69,34691.03110531161,0.01594090202177294
12.03333,75,34205.88085924449,0.017107309486780714
12.04167,83,33729.12441940864,0.01866251944012442
12.05,90,33261.6905668817,0.020023328149300156
12.05833,97,32802.79412147711,0.021384136858475893
12.06667,105,32351.696837446038,0.022939346811819597
12.075,114,31909.283724125147,0.02468895800933126
12.08333,125,31474.817912469884,0.026827371695178848
12.09167,135,31047.606082657476,0.028771384136858476
12.1,146,30628.492074691887,0.030909797822706066
12.10833,158,30216.783582875538,0.03324261275272162
12.11667,169,29811.82875387833,0.035381026438569205
12.125,182,29414.432682114784,0.03790824261275272
12.13333,195,29023.944216783053,0.04043545878693624
12.14167,209,28639.749823791444,0.04315707620528771
12.15,225,28262.61810973566,0.046267496111975115
12.15833,241,27891.935975336837,0.04937791601866252
12.16667,257,27527.125338770482,0.052488335925349926
12.175,274,27168.92042288543,0.05579315707620529
12.18333,292,26816.74335144212,0.05929237947122862
12.19167,311,26470.048880264145,0.06298600311041991
12.2,330,26129.53880968143,0.0666796267496112
12.20833,351,25794.667905312446,0.07076205287713841
12.21667,372,25464.92137345086,0.07484447900466563
12.225,393,25140.97042108541,0.07892690513219285
12.23333,415,24822.300097583666,0.08320373250388803
12.24167,439,24508.423877508954,0.08786936236391912
12.25,463,24199.984081698734,0.09253499222395023
12.25833,489,23896.493885893684,0.09758942457231726
12.26667,515,23597.493036533335,0.1026438569206843
12.275,543,23303.59656109948,0.10808709175738725
12.28333,573,23014.34378711536,0.11391912908242613
12.29167,604,22729.298903999115,0.11994556765163297
12.3,636,22449.051133356374,0.12616640746500776
12.30833,670,22173.164144299553,0.1327760497667185
12.31667,707,21901.22489218773,0.13996889580093314
12.325,745,21633.798182354894,0.14735614307931572
12.33333,787,21370.470364808833,0.15552099533437014
12.34167,829,21110.84962125422,0.16368584758942456
12.35,876,20855.477639680445,0.17282270606531883
12.35833,926,20603.961925380554,0.18254276827371696
12.36667,978,20355.93047198665,0.19265163297045101
12.375,1034,20111.903064367078,0.2035381026438569
12.38333,1095,19871.506960964223,0.21539657853810265
12.39167,1159,19634.38866585209,0.22783825816485226
12.4,1228,19401.047197012165,0.24125194401244168
12.40833,1300,19171.128275353363,0.255248833592535
12.41667,1378,18944.29571756703,0.2704121306376361
12.425,1460,18721.028837698726,0.28635303265940903
12.43333,1548,18500.99063050631,0.3034603421461897
12.44167,1640,18283.861120846577,0.3213452566096423
12.45,1738,18070.10091489629,0.3403965785381026
12.45833,1840,17859.389184682837,0.36022550544323484
12.46667,1947,17651.421144880278,0.3810264385692068
12.475,2059,17446.639626432498,0.40279937791601866
12.48333,2174,17244.738967039782,0.4251555209953344
12.49167,2294,17045.428630550774,0.4484836702954899
12.5,2417,16849.13454721066,0.4723950233281493
12.50833,2545,16655.565285527602,0.4972783825816485
12.51667,2674,16464.443689539214,0.5223561430793157
12.525,2807,16276.17960842662,0.5482115085536547
12.53333,2943,16090.494977870923,0.5746500777604977
12.54167,3079,15907.12521742847,0.6010886469673405
12.55,3217,15726.464865163338,0.6279160186625194
12.55833,3355,15548.24842374434,0.6547433903576982
12.56667,3491,15372.22314384459,0.6811819595645412
12.575,3627,15198.768974828565,0.7076205287713841
12.58333,3762,15027.632245606877,0.7338646967340591
12.59167,3893,14858.571348018493,0.7593312597200622
12.6,4021,14691.952321318873,0.7842146189735615
12.60833,4146,14527.532633884402,0.8085147744945568
12.61667,4264,14365.081178495971,0.8314541213063764
12.625,4379,14204.950722439451,0.8538102643856921
12.63333,4487,14046.909236125652,0.8748055987558321
12.64167,4588,13890.735519318798,0.8944401244167963
12.65,4682,13736.769667109445,0.9127138413685848
12.65833,4768,13584.789560247196,0.9294323483670296
12.66667,4845,13434.583353110444,0.9444012441679627
12.675,4914,13286.47903344346,0.9578149300155521
12.68333,4973,13140.2638422235,0.9692846034214619
12.69167,5023,12995.734774795865,0.97900466562986
12.7,5065,12853.208243564732,0.9871695178849145
12.70833,5096,12712.480337726214,0.9931959564541213
12.71667,5117,12573.356415820672,0.9972783825816485
12.725,5129,12436.141815798597,0.999611197511664
12.73333,5131,12300.640998771134,1.0
12.74167,5123,12166.66724124972,0.9984447900466563
12.75,5106,12034.515279143168,0.9951399688958009
12.75833,5079,11903.997501464168,0.9898911353032659
12.76667,5044,11774.934687532728,0.9830870917573873
12.775,5000,11647.611417117929,0.9745334370139969
12.78333,4949,11521.847592977321,0.9646189735614308
12.79167,4888,11397.471109885548,0.9527604976671851
12.8,4822,11274.756812547212,0.9399300155520995
12.80833,4748,11153.531730820474,0.9255443234836703
12.81667,4667,11033.630513266084,0.9097978227060654
12.825,4582,10915.318667233481,0.8932737169517885
12.83333,4491,10798.429988696334,0.8755832037325039
12.84167,4396,10682.805541785328,0.8571150855365475
12.85,4295,10568.701872573545,0.8374805598755832
12.85833,4192,10455.959205725192,0.817457231726283
12.86667,4084,10344.424704602647,0.796461897356143
12.875,3975,10234.346309934133,0.7752721617418351
12.88333,3864,10125.570359128176,0.7536936236391913
12.89167,3750,10017.949818720446,0.7315318818040435
12.9,3636,9911.724361093211,0.7093701399688958
12.90833,3522,9806.746140739311,0.687208398133748
12.91667,3408,9702.873649712343,0.6650466562986003
12.925,3293,9600.338611663297,0.6426905132192846
12.93333,3180,9498.998720819174,0.6207231726283048
12.94167,3068,9398.71773468507,0.598950233281493
12.95,2955,9299.719730995097,0.5769828926905132
12.95833,2846,9201.867683732238,0.5557931570762052
12.96667,2737,9105.030371712244,0.5346034214618973
12.975,2631,9009.424514277469,0.5139968895800933
12.98333,2527,8914.918121192733,0.4937791601866252
12.99167,2424,8821.384763020586,0.473755832037325
13.0,2324,8729.034073930487,0.45431570762052875
13.00833,2228,8637.738870238116,0.4356531881804043
13.01667,2133,8547.377298455775,0.4171850699844479
13.025,2041,8458.152167589229,0.39930015552099535
13.03333,1954,8369.940884564834,0.3823872472783826
13.04167,1869,8282.625969176186,0.36586314152410576
13.05,1786,8196.403652121217,0.34972783825816484
13.05833,1707,8111.155728389182,0.3343701399688958
13.06667,1630,8026.768899755737,0.3194012441679627
13.075,1556,7943.433054099807,0.30501555209953346
13.08333,1486,7861.034183182888,0.29140746500777603
13.09167,1417,7779.462990819393,0.27799377916018664
13.1,1353,7698.903246387812,0.265552099533437
13.10833,1290,7619.244958325266,0.25330482115085534
13.11667,1231,7540.382662490512,0.24183514774494558
13.125,1174,7462.494223881609,0.2307542768273717
13.13333,1120,7385.473497591746,0.2202566096423017
13.14167,1069,7309.218691255675,0.21034214618973562
13.15,1019,7233.901969691241,0.2006220839813375
13.15833,973,7159.4208743352365,0.1916796267496112
13.16667,929,7085.677132949234,0.18312597200622083
13.175,887,7012.837405458211,0.1749611197511664
13.18333,846,6940.8027679610095,0.16699066874027993
13.19167,808,6869.478325116415,0.15960342146189735
13.2,771,6799.025418708554,0.15241057542768274
13.20833,736,6729.348516049196,0.14560653188180403
13.21667,703,6660.35596310069,0.13919129082426127
13.225,671,6592.203962085656,0.13297045101088648
13.23333,641,6524.800236013762,0.12713841368584758
13.24167,613,6458.056243467003,0.12169517884914463
13.25,586,6392.123218532331,0.11644634525660964
13.25833,560,6326.912011072823,0.11139191290824262
13.26667,535,6262.337070709058,0.10653188180404355
13.275,513,6198.544827410777,0.10225505443234836
13.28333,491,6135.449135977559,0.09797822706065319
13.29167,471,6072.967321491672,0.09409020217729394
13.3,451,6011.241167268182,0.09020217729393468
13.30833,433,5950.187417453027,0.08670295489891135
13.31667,415,5889.726162735545,0.08320373250388803
13.325,398,5829.994691061496,0.07989891135303266
13.33333,383,5770.912525920818,0.07698289269051321
13.34167,368,5712.402419412476,0.07406687402799378
13.35,353,5654.597309330344,0.07115085536547434
13.35833,340,5597.419394103733,0.06862363919129083
13.36667,327,5540.793988036229,0.0660964230171073
13.375,316,5484.849818443771,0.06395800933125972
13.38333,304,5429.511659367608,0.06162519440124417
13.39167,293,5374.707292835478,0.05948678071539658
13.4,283,5320.5613702093415,0.05754276827371695
13.40833,273,5267.001146488017,0.05559875583203733
13.41667,264,5213.956781394843,0.05384914463452566
13.425,255,5161.548979855979,0.052099533437014
13.43333,247,5109.707387603873,0.05054432348367029
13.44167,238,5058.364456415932,0.04879471228615863
13.45,231,5007.637069393192,0.04743390357698289
13.45833,224,4957.4571771740475,0.046073094867807154
13.46667,216,4907.75944149763,0.04451788491446345
13.475,210,4858.657044169144,0.04335147744945567
13.48333,204,4810.084158483635,0.042185069984447904
13.49167,196,4761.977578093884,0.0406298600311042
13.5,190,4714.446899460844,0.03946345256609642
13.50833,185,4667.428440247628,0.03849144634525661
13.51667,179,4620.861051254209,0.03732503888024884
13.525,174,4574.850855620015,0.03635303265940902
13.53333,169,4529.336240495517,0.035381026438569205
13.54167,165,4484.258042264837,0.034603421461897356
13.55,161,4439.719019108438,0.03382581648522551
13.55833,157,4395.659555855928,0.03304821150855365
13.56667,152,4352.022406092537,0.03207620528771384
13.575,149,4308.907067639706,0.031493001555209954
13.58333,146,4266.255854422805,0.030909797822706066
13.59167,142,4224.013371619644,0.030132192846034214
13.6,139,4182.275957858552,0.029548989113530325
13.60833,135,4140.987790421595,0.028771384136858476
13.61667,131,4100.09526320754,0.027993779160186624
13.625,129,4059.691653520695,0.0276049766718507
13.63333,126,4019.722938936299,0.02702177293934681
13.64167,124,3980.137241788684,0.026632970451010887
13.65,120,3941.02487282002,0.025855365474339035
13.65833,117,3902.333549353114,0.025272161741835147
13.66667,115,3864.01306427855,0.024883359253499222
13.675,112,3826.1508534420386,0.024300155520995334
13.68333,110,3788.6963158977824,0.02391135303265941
13.69167,107,3751.6008594781265,0.02332814930015552
13.7,105,3714.949133946561,0.022939346811819597
13.70833,103,3678.6921642570683,0.02255054432348367
13.71667,101,3642.7829197195747,0.022161741835147745
13.725,99,3607.3033501399805,0.02177293934681182
13.73333,96,3572.2060526627665,0.021189735614307932
13.74167,94,3537.4455067218087,0.020800933125972008
13.75,92,3503.101045532083,0.02041213063763608
13.75833,90,3469.126786857397,0.020023328149300156
13.76667,89,3435.478670700946,0.01982892690513219
13.775,88,3402.233494610071,0.01963452566096423
13.78333,86,3369.3468472593686,0.019245723172628303
13.79167,84,3336.776081603636,0.01885692068429238
13.8,83,3304.595537934242,0.01866251944012442
13.80833,81,3272.7622279746765,0.01827371695178849
13.81667,80,3241.234871708451,0.01807931570762053
13.825,78,3210.085428267636,0.017690513219284602
13.83333,77,3179.272286264488,0.017496111975116642
13.84167,77,3148.755488532624,0.017496111975116642
13.85,75,3118.604686718523,0.017107309486780714
13.85833,73,3088.779602018067,0.01671850699844479
13.86667,71,3059.241557274538,0.016329704510108865
13.875,70,3030.057968390642,0.0161353032659409
13.88333,69,3001.189846106619,0.01594090202177294
13.89167,68,2972.5997521857653,0.015746500777604977
13.9,67,2944.3529362634354,0.015552099533437015
13.90833,66,2916.4116572437056,0.015357698289269051
13.91667,65,2888.739675997715,0.015163297045101089
13.925,65,2861.4001433407616,0.015163297045101089
13.93333,64,2834.356526398164,0.014968895800933127
13.94167,63,2807.5737467308318,0.014774494556765163
13.95,62,2781.1129218246374,0.0145800933125972
13.95833,61,2754.938688383308,0.014385692068429238
13.96667,61,2729.017091562735,0.014385692068429238
13.975,60,2703.407279059474,0.014191290824261276
13.98333,60,2678.0750198550527,0.014191290824261276
13.99167,59,2652.9874468176113,0.013996889580093312
14.0,59,2628.201799597907,0.013996889580093312
14.00833,58,2603.684943361927,0.01380248833592535
14.01667,58,2579.4050639996944,0.01380248833592535
14.025,57,2555.4175530071498,0.013608087091757388
14.03333,56,2531.6903368392877,0.013413685847589424
14.04167,56,2508.19262090329,0.013413685847589424
14.05,56,2484.978006695786,0.013413685847589424
14.05833,55,2462.015448222941,0.013219284603421462
14.06667,54,2439.2751378831385,0.0130248833592535
14.075,54,2416.8089437085787,0.0130248833592535
14.08333,53,2394.586814589808,0.012830482115085537
14.09167,52,2372.5798984647713,0.012636080870917573
14.1,51,2350.8383847883024,0.012441679626749611
14.10833,51,2329.333185676401,0.012441679626749611
14.11667,51,2308.0363742137715,0.012441679626749611
14.125,50,2286.9965144981616,0.012247278382581649
14.13333,50,2266.1854512503032,0.012247278382581649
14.14167,49,2245.576153300756,0.012052877138413685
14.15,49,2225.2156110068013,0.012052877138413685
14.15833,48,2205.0765721366574,0.011858475894245723
14.16667,48,2185.132872625608,0.011858475894245723
14.175,48,2165.4299794038716,0.011858475894245723
14.18333,47,2145.9415144322943,0.01166407465007776
14.19167,47,2126.642153212291,0.01166407465007776
14.2,46,2107.575887904893,0.011469673405909799
14.20833,46,2088.717186897927,0.011469673405909799
14.21667,45,2070.0415384197695,0.011275272161741835
14.225,44,2051.591507191434,0.011080870917573872
14.23333,43,2033.3423810488862,0.01088646967340591
14.24167,43,2015.2704349736646,0.01088646967340591
14.25,43,1997.4168521886413,0.01088646967340591
14.25833,43,1979.7577138244587,0.01088646967340591
14.26667,43,1962.2700564506301,0.01088646967340591
14.275,43,1944.9937263724623,0.01088646967340591
14.28333,44,1927.9055726574222,0.011080870917573872
14.29167,43,1910.9833690905002,0.01088646967340591
14.3,44,1894.2656682733148,0.011080870917573872
14.30833,44,1877.7300626854194,0.011080870917573872
14.31667,45,1861.3550396378675,0.011275272161741835
14.325,44,1845.177900074341,0.011080870917573872
14.33333,45,1829.1769559822403,0.011275272161741835
14.34167,44,1813.3313853042725,0.011080870917573872
14.35,45,1797.6772780314786,0.011275272161741835
14.35833,44,1782.1936425989318,0.011080870917573872
14.36667,44,1766.8603253103054,0.011080870917573872
14.375,44,1751.7122447688823,0.011080870917573872
14.38333,43,1736.7290834110706,0.01088646967340591
14.39167,42,1721.8913343371448,0.010692068429237946
14.4,42,1707.2327830994534,0.010692068429237946
14.40833,41,1692.7337644284753,0.010497667185069984
14.41667,41,1678.3753972802326,0.010497667185069984
14.425,40,1664.190371397723,0.010303265940902022
14.43333,41,1650.1596526928486,0.010497667185069984
14.44167,40,1636.2649656647088,0.010303265940902022
14.45,39,1622.5379403616803,0.01010886469673406
14.45833,40,1608.960153407891,0.010303265940902022
14.46667,39,1595.5139152037154,0.01010886469673406
14.475,40,1582.229831064325,0.010303265940902022
14.48333,39,1569.0900685152774,0.01010886469673406
14.49167,38,1556.0775047175157,0.009914463452566096
14.5,39,1543.2217542568774,0.01010886469673406
14.50833,39,1530.5055562706698,0.01010886469673406
14.51667,39,1517.912336169785,0.01010886469673406
14.525,40,1505.4707507556866,0.010303265940902022
14.53333,39,1493.1640920788718,0.01010886469673406
14.54167,39,1480.9763158362307,0.01010886469673406
14.55,38,1468.9351529375979,0.009914463452566096
14.55833,37,1457.0244302965118,0.009720062208398134
14.56667,38,1445.2286163795125,0.009914463452566096
14.575,38,1433.5745472538629,0.009914463452566096
14.58333,38,1422.0465670249926,0.009914463452566096
14.59167,37,1410.629640071496,0.009720062208398134
14.6,38,1399.3497376020389,0.009914463452566096
14.60833,37,1388.1917038875285,0.009720062208398134
14.61667,38,1377.1409827626012,0.009914463452566096
14.625,38,1366.222709710027,0.009914463452566096
14.63333,39,1355.4222126127202,0.01010886469673406
14.64167,39,1344.7253988180064,0.01010886469673406
14.65,38,1334.156596314998,0.009914463452566096
14.65833,38,1323.7016005166333,0.009914463452566096
14.66667,37,1313.346766827683,0.009720062208398134
14.675,37,1303.1156431259064,0.009720062208398134
14.68333,37,1292.994476754206,0.009720062208398134
14.69167,37,1282.97005615883,0.009720062208398134
14.7,37,1273.0651756408263,0.009720062208398134
14.70833,36,1263.2665193451835,0.009525660964230171
14.71667,37,1253.5612941953823,0.009720062208398134
14.725,37,1243.971566652571,0.009720062208398134
14.73333,37,1234.4844429601872,0.009720062208398134
14.74167,37,1225.0875343954465,0.009720062208398134
14.75,38,1215.8022044933869,0.009914463452566096
14.75833,38,1206.6159673737277,0.009914463452566096
14.76667,39,1197.5168249375101,0.01010886469673406
14.775,39,1188.5254619753769,0.01010886469673406
14.78333,40,1179.6297866567534,0.010303265940902022
14.79167,39,1170.8181781764272,0.01010886469673406
14.8,40,1162.1106660365365,0.010303265940902022
14.80833,41,1153.4955390016648,0.010497667185069984
14.81667,42,1144.961540672661,0.010692068429237946
14.825,43,1136.5280679586178,0.01088646967340591
14.83333,44,1128.1837772202564,0.011080870917573872
14.84167,44,1119.9177639039874,0.011080870917573872
14.85,44,1111.7488143574728,0.011080870917573872
14.85833,44,1103.6659398824208,0.011080870917573872
14.86667,45,1095.6585756009822,0.011275272161741835
14.875,47,1087.7449186684516,0.01166407465007776
14.88333,48,1079.914323050959,0.011858475894245723
14.89167,48,1072.156551719998,0.011858475894245723
14.9,50,1064.4892333566193,0.012247278382581649
14.90833,50,1056.902052674312,0.012247278382581649
14.91667,52,1049.3850890177373,0.012636080870917573
14.925,52,1041.9554226736757,0.012636080870917573
14.93333,54,1034.6030575382413,0.0130248833592535
14.94167,54,1027.3183782109688,0.0130248833592535
14.95,54,1020.1179360381307,0.0130248833592535
14.95833,54,1012.9920428800682,0.0130248833592535
14.96667,55,1005.9313777622442,0.013219284603421462
14.975,55,998.9519819997156,0.013219284603421462
14.98333,56,992.0444645121217,0.013413685847589424
14.99167,57,985.1997882555651,0.013608087091757388
15.0,58,978.4335028207961,0.01380248833592535
15.00833,58,971.7365036177753,0.01380248833592535
15.01667,58,965.1000273231203,0.01380248833592535
15.025,58,958.5391496009967,0.01380248833592535
15.03333,58,952.0450420685112,0.01380248833592535
15.04167,57,945.6092052164429,0.013608087091757388
15.05,57,939.2462580430481,0.013608087091757388
15.05833,56,932.9476383700264,0.013413685847589424
15.06667,55,926.7051009195129,0.013219284603421462
15.075,54,920.5328247293826,0.0130248833592535
15.08333,54,914.4225041801533,0.0130248833592535
15.09167,53,908.3661388366268,0.012830482115085537
15.1,52,902.3774840714938,0.012636080870917573
15.10833,51,896.448481384528,0.012441679626749611
15.11667,50,890.5713661218224,0.012247278382581649
15.125,49,884.7594857747932,0.012052877138413685
15.13333,48,879.0050198031664,0.011858475894245723
15.14167,48,873.3004305366057,0.011858475894245723
15.15,47,867.6586729067403,0.01166407465007776
15.15833,47,862.0721554645081,0.01166407465007776
15.16667,47,856.5335589336277,0.01166407465007776
15.175,46,851.0554605882602,0.011469673405909799
15.18333,46,845.6304894608759,0.011469673405909799
15.19167,45,840.2515363119581,0.011275272161741835
15.2,44,834.9308152692715,0.011080870917573872
15.20833,43,829.6611674224187,0.01088646967340591
15.21667,42,824.4356855106964,0.010692068429237946
15.225,43,819.2662345618005,0.01088646967340591
15.23333,43,814.1458595926468,0.01088646967340591
15.24167,43,809.0678474505929,0.01088646967340591
15.25,42,804.0437277511021,0.010692068429237946
15.25833,41,799.0667415261117,0.010497667185069984
15.26667,41,794.1303620589342,0.010497667185069984
15.275,40,789.2457968902064,0.010303265940902022
15.28333,39,784.4064753548212,0.01010886469673406
15.29167,38,779.6060497515437,0.009914463452566096
15.3,38,774.8554185101917,0.009914463452566096
15.30833,37,770.148191771534,0.009720062208398134
15.31667,36,765.4781936173656,0.009525660964230171
15.325,36,760.8560259775817,0.009525660964230171
15.33333,37,756.2754725537625,0.009720062208398134
15.34167,37,751.7305221579182,0.009720062208398134
15.35,38,747.2314925295665,0.009914463452566096
15.35833,38,742.772333841363,0.009914463452566096
15.36667,38,738.3471927889782,0.009914463452566096
15.375,39,733.9661149196249,0.01010886469673406
15.38333,40,729.6232099770461,0.010303265940902022
15.39167,42,725.3127759231695,0.010692068429237946
15.4,43,721.0445977557863,0.01088646967340591
15.40833,44,716.812938123678,0.011080870917573872
15.41667,46,712.6122397647055,0.011469673405909799
15.425,48,708.452038539524,0.011858475894245723
15.43333,49,704.3267434905255,0.012052877138413685
15.44167,51,700.230935834208,0.012441679626749611
15.45,53,696.1739134108897,0.012830482115085537
15.45833,55,692.1502253248149,0.013219284603421462
15.46667,57,688.1545851593305,0.013608087091757388
15.475,59,684.19606357896,0.013996889580093312
15.48333,61,680.2693436106462,0.014385692068429238
15.49167,63,676.3692652283876,0.014774494556765163
15.5,65,672.504682540536,0.015163297045101089
15.50833,67,668.6704064977237,0.015552099533437015
15.51667,69,664.8613976933967,0.01594090202177294
15.525,71,661.0863040156919,0.016329704510108865
15.53333,73,657.3400585356073,0.01671850699844479
15.54167,74,653.6177368299419,0.016912908242612754
15.55,76,649.9277906884096,0.017301710730948678
15.55833,77,646.2652696564754,0.017496111975116642
15.56667,78,642.6253588079788,0.017690513219284602
15.575,79,639.016323744551,0.017884914463452566
15.58333,80,635.43332497424,0.01807931570762053
15.59167,80,631.8716517603419,0.01807931570762053
15.6,81,628.3393932019881,0.01827371695178849
15.60833,80,624.8318154197955,0.01807931570762053
15.61667,80,621.3443067132356,0.01807931570762053
15.625,80,617.8847891294156,0.01807931570762053
15.63333,78,614.44862923762,0.017690513219284602
15.64167,78,611.031309334817,0.017690513219284602
15.65,76,607.6405936984714,0.017301710730948678
15.65833,76,604.2719443169084,0.017301710730948678
15.66667,74,600.9209325989631,0.016912908242612754
15.675,74,597.5951741519608,0.016912908242612754
15.68333,73,594.2902214679872,0.01671850699844479
15.69167,72,591.0017303679455,0.016524105754276826
15.7,71,587.7371766524819,0.016329704510108865
15.70833,70,584.4921985961615,0.0161353032659409
15.71667,69,581.2625318460478,0.01594090202177294
15.725,67,578.0555210992874,0.015552099533437015
15.73333,65,574.8668858346585,0.015163297045101089
15.74167,63,571.6924370583325,0.014774494556765163
15.75,62,568.5393969218411,0.0145800933125972
15.75833,60,565.4035616211403,0.014191290824261276
15.76667,58,562.2808132621363,0.01380248833592535
15.775,57,559.1782597849957,0.013608087091757388
15.78333,56,556.0917698113253,0.013413685847589424
15.79167,55,553.0172923774284,0.013219284603421462
15.8,54,549.9618293913092,0.0130248833592535
15.80833,53,546.9213177523279,0.012830482115085537
15.81667,52,543.8917694105751,0.012636080870917573
15.825,53,540.8800882555934,0.012830482115085537
15.83333,52,537.8822754319509,0.012636080870917573
15.84167,52,534.8944019567556,0.012636080870917573
15.85,51,531.9232815297461,0.012441679626749611
15.85833,52,528.9649756687594,0.012636080870917573
15.86667,53,526.0156107335839,0.012830482115085537
15.875,54,523.0819178982179,0.0130248833592535
15.88333,55,520.1600153394429,0.013219284603421462
15.89167,57,517.2460811796066,0.013608087091757388
15.9,59,514.346771563703,0.013996889580093312
15.90833,62,511.4582577364569,0.0145800933125972
15.91667,65,508.57676615905984,0.015163297045101089
15.925,69,505.7088852789747,0.01594090202177294
15.93333,73,502.85083595727804,0.01671850699844479
15.94167,78,499.99888973493023,0.017690513219284602
15.95,84,497.15957448872786,0.01885692068429238
15.95833,90,494.3291574345532,0.020023328149300156
15.96667,96,491.5039520426925,0.021189735614307932
15.975,103,488.69043259392197,0.02255054432348367
15.98333,110,485.88490951354464,0.02391135303265941
15.99167,116,483.08373524505345,0.025077760497667186
16.0,122,480.29333723977726,0.026244167962674963
16.00833,127,477.51006615055104,0.027216174183514776
16.01667,133,474.7303105890843,0.028382581648522552
16.025,139,471.96045773546695,0.029548989113530325
16.03333,144,469.1968956673067,0.03052099533437014
16.04167,148,466.4360464881709,0.031298600311041994
16.05,151,463.684263509867,0.03188180404354588
16.05833,154,460.93796953963573,0.03246500777604977
16.06667,156,458.1936177040384,0.03285381026438569
16.075,157,455.4575335939408,0.03304821150855365
16.08333,156,452.72617224595814,0.03285381026438569
16.09167,155,449.9960154789684,0.03265940902021773
16.1,153,447.27336711577516,0.0322706065318818
16.10833,150,444.55471207447437,0.031687402799377914
16.11667,147,441.8365586963913,0.03110419906687403
16.125,143,439.1251947571257,0.030326594090202177
16.13333,140,436.41713286820834,0.02974339035769829
16.14167,134,433.708905915748,0.028576982892690513
16.15,129,431.0067910883114,0.0276049766718507
16.15833,125,428.30732667926003,0.026827371695178848
16.16667,119,425.6070682991611,0.025660964230171075
16.175,113,422.91228776332434,0.024494556765163298
16.18333,108,420.219547202437,0.023522550544323485
16.19167,102,417.5254233062537,0.02235614307931571
16.2,97,414.8361874622088,0.021384136858475893
16.20833,92,412.1484239553009,0.02041213063763608
16.21667,87,409.458729099957,0.019440124416796267
16.225,82,406.77337850246744,0.018468118195956455
16.23333,77,404.08897710087973,0.017496111975116642
16.24167,73,401.40213955298873,0.01671850699844479
16.25,70,398.719150025675,0.0161353032659409
16.25833,66,396.0366327913568,0.015357698289269051
16.26667,63,393.35121973564867,0.014774494556765163
16.275,60,390.6692076264538,0.014191290824261276
16.28333,57,387.98723890870053,0.013608087091757388
16.29167,55,385.30196178197343,0.013219284603421462
16.3,53,382.61968929398336,0.012830482115085537
16.30833,50,379.93708109060674,0.012247278382581649
16.31667,48,377.25080095037885,0.011858475894245723
16.325,46,374.5671815294342,0.011469673405909799
16.33333,45,371.88289886793035,0.011275272161741835
16.34167,43,369.19463177095656,0.01088646967340591
16.35,42,366.50873545236243,0.010692068429237946
16.35833,41,363.82190173373647,0.010497667185069984
16.36667,39,361.1308240644857,0.01010886469673406
16.375,37,358.4418827737142,0.009720062208398134
16.38333,37,355.75178500730397,0.009720062208398134
16.39167,36,353.0572386724999,0.009525660964230171
16.4,35,350.3646513498282,0.00933125972006221
16.40833,33,347.67074523230593,0.008942457231726283
16.41667,33,344.97224267337043,0.008942457231726283
16.425,32,342.27558020081653,0.008748055987558321
16.43333,31,339.57749495061495,0.008553654743390357
16.44167,30,336.87472388270186,0.008359253499222395
16.45,29,334.17373371073813,0.008164852255054433
16.45833,28,331.4712765795115,0.00797045101088647
16.46667,27,328.76410439233854,0.007776049766718507
16.475,26,326.05871480454124,0.007581648522550544
16.48333,25,323.35187520073634,0.007387247278382581
16.49167,25,320.6403529267548,0.007387247278382581
16.5,25,317.9306768445293,0.007387247278382581
16.50833,25,315.21962995955784,0.007387247278382581
16.51667,24,312.50399573070524,0.007192846034214619
16.525,24,309.7903339650124,0.007192846034214619
16.53333,24,307.07544383354445,0.007192846034214619
16.54167,24,304.3561257263206,0.007192846034214619
16.55,24,301.6389696167532,0.007192846034214619
16.55833,24,298.9207915206791,0.007192846034214619
16.56667,25,296.1984097210702,0.007387247278382581
16.575,26,293.4784430248365,0.007581648522550544
16.58333,26,290.7577251232591,0.007581648522550544
16.59167,28,288.03309329506016,0.00797045101088647
16.6,30,285.31119328053006,0.008359253499222395
16.60833,31,282.58887740774463,0.008553654743390357
16.61667,34,279.86300317755456,0.009136858475894245
16.625,37,277.14024079720986,0.009720062208398134
16.63333,40,274.4174623061309,0.010303265940902022
16.64167,44,271.6915467842254,0.011080870917573872
16.65,49,268.9691858464716,0.012052877138413685
16.65833,54,266.24727243819115,0.0130248833592535
16.66667,60,263.52270866479415,0.014191290824261276
16.675,66,260.8022039198095,0.015357698289269051
16.68333,73,258.08267333673047,0.01671850699844479
16.69167,80,255.3610436006488,0.01807931570762053
16.7,88,252.64403764904657,0.01963452566096423
16.70833,96,249.9285941830307,0.021189735614307932
16.71667,104,247.21166609214862,0.022744945567651633
16.725,113,244.49998503990366,0.024494556765163298
16.73333,122,241.79051475692214,0.026244167962674963
16.74167,129,239.0802360225245,0.0276049766718507
16.75,137,236.3758838263336,0.0291601866251944
16.75833,143,233.67444844457418,0.030326594090202177
16.76667,149,230.97294028860586,0.031493001555209954
16.775,153,228.27809170679822,0.0322706065318818
16.78333,158,225.58692107615624,0.03324261275272162
16.79167,160,222.89647023639515,0.03363141524105754
16.8,161,220.21346234181428,0.03382581648522551
16.80833,161,217.5349454932784,0.03382581648522551
16.81667,160,214.8579947381659,0.03363141524105754
16.825,158,212.18931697985067,0.03324261275272162
16.83333,156,209.52599165811426,0.03285381026438569
16.84167,151,206.8651288466086,0.03188180404354588
16.85,146,204.21341159800042,0.030909797822706066
16.85833,141,201.5679523365006,0.029937791601866253
16.86667,136,198.92589794957033,0.028965785381026437
16.875,129,196.2938995732788,0.0276049766718507
16.88333,122,193.66910424676178,0.026244167962674963
16.89167,116,191.04869744154,0.025077760497667186
16.9,109,188.43928985550704,0.023716951788491446
16.90833,102,185.8380647663751,0.02235614307931571
16.91667,95,183.24224795769166,0.020995334370139968
16.925,89,180.6584007625856,0.01982892690513219
16.93333,83,178.0837442806226,0.01866251944012442
16.94167,78,175.51554629516184,0.017690513219284602
16.95,71,172.9603094850106,0.016329704510108865
16.95833,66,170.41529432450545,0.015357698289269051
16.96667,60,167.87781220405142,0.014191290824261276
16.975,56,165.35429756226733,0.013413685847589424
16.98333,52,162.84205174955835,0.012636080870917573
16.99167,48,160.33843129210345,0.011858475894245723
17.0,45,157.8497925600175,0.011275272161741835
17.00833,42,155.37347921701124,0.010692068429237946
17.01667,39,152.90689437198205,0.01010886469673406
17.025,37,150.45630631447088,0.009720062208398134
17.03333,35,148.01910238712753,0.00933125972006221
17.04167,33,145.5927336352654,0.008942457231726283
17.05,31,143.18337014150265,0.008553654743390357
17.05833,29,140.78844422761105,0.008164852255054433
17.06667,28,138.4054561134856,0.00797045101088647
17.075,26,136.04046752253643,0.007581648522550544
17.08333,25,133.69095696384946,0.007387247278382581
17.09167,25,131.3544749711527,0.007387247278382581
17.1,25,129.03696479047014,0.007387247278382581
17.10833,24,126.73595224993242,0.007192846034214619
17.11667,24,124.44903921571546,0.007192846034214619
17.125,24,122.18204046616091,0.007192846034214619
17.13333,23,119.93253018989797,0.006998444790046656
17.14167,23,117.69816248977448,0.006998444790046656
17.15,23,115.48461389556932,0.006998444790046656
17.15833,23,113.28950791028396,0.006998444790046656
17.16667,24,111.11055166354116,0.007192846034214619
17.175,24,108.95327394997877,0.007192846034214619
17.18333,25,106.81534845205977,0.007387247278382581
17.19167,26,104.69453599936166,0.007581648522550544
17.2,27,102.59620854722316,0.007776049766718507
17.20833,28,100.51809074257572,0.00797045101088647
17.21667,29,98.45799767550062,0.008164852255054433
17.225,30,96.4211358255762,0.008359253499222395
17.23333,31,94.40528150585378,0.008553654743390357
17.24167,31,92.40830452423333,0.008553654743390357
17.25,33,90.4352377989761,0.008942457231726283
17.25833,34,88.48390993457862,0.009136858475894245
17.26667,34,86.55224581506955,0.009136858475894245
17.275,35,84.64509734717141,0.00933125972006221
17.28333,37,82.76034598379772,0.009720062208398134
17.29167,38,80.89597194700046,0.009914463452566096
17.3,38,79.05663939825101,0.009914463452566096
17.30833,39,77.24028312581842,0.01010886469673406
17.31667,40,75.44493887882818,0.010303265940902022
17.325,41,73.6750771167978,0.010497667185069984
17.33333,40,71.92868640018324,0.010303265940902022
17.34167,41,70.2038581125359,0.010497667185069984
17.35,41,68.5048639126968,0.010497667185069984
17.35833,41,66.8297465184228,0.010497667185069984
17.36667,42,65.17665299380727,0.010692068429237946
17.375,41,63.54965200626821,0.010497667185069984
17.38333,40,61.94684077243443,0.010303265940902022
17.39167,40,60.36642203181736,0.010303265940902022
17.4,40,58.81225822879935,0.010303265940902022
17.40833,39,57.282501385150326,0.01010886469673406
17.41667,38,55.77540986909741,0.009914463452566096
17.425,38,54.294637665259415,0.009914463452566096
17.43333,37,52.83839188203502,0.009720062208398134
17.44167,36,51.404986429825904,0.009525660964230171
17.45,36,49.997865629931056,0.009525660964230171
17.45833,36,48.615291929646155,0.009525660964230171
17.46667,35,47.25563467564542,0.00933125972006221
17.475,35,45.92212836287818,0.00933125972006221
17.48333,35,44.61309101258423,0.00933125972006221
17.49167,33,43.32694727829438,0.008942457231726283
17.5,33,42.066722718736834,0.008942457231726283
17.50833,33,40.83079114426131,0.008942457231726283
17.51667,32,39.61763237484978,0.008748055987558321
17.525,32,38.43006496361032,0.008748055987558321
17.53333,31,37.266518709920355,0.008553654743390357
17.54167,31,36.125528448568176,0.008553654743390357
17.55,31,35.009708680167726,0.008553654743390357
17.55833,29,33.91754537270425,0.008164852255054433
17.56667,29,32.84762821766433,0.008164852255054433
17.575,29,31.802371605026252,0.008164852255054433
17.58333,29,30.780317830504313,0.008164852255054433
17.59167,28,29.780111274178605,0.00797045101088647
17.6,28,28.8039711015934,0.00797045101088647
17.60833,28,27.850496067786196,0.00797045101088647
17.61667,28,26.91838506306098,0.00797045101088647
17.625,28,26.00966780118903,0.00797045101088647
17.63333,27,25.12299959401242,0.007776049766718507
17.64167,27,24.25713364882561,0.007776049766718507
17.65,26,23.413916818588373,0.007581648522550544
17.65833,26,22.592061026781142,0.007581648522550544
17.66667,26,21.790373581917756,0.007581648522550544
17.675,26,21.010525806463416,0.007581648522550544
17.68333,25,20.25128623983187,0.007387247278382581
17.69167,25,19.511516044012147,0.007387247278382581
17.7,25,18.792718996901886,0.007387247278382581
17.70833,24,18.093720190920422,0.007192846034214619
17.71667,24,17.413434356071484,0.007192846034214619
17.725,24,16.75320626891394,0.007192846034214619
17.73333,24,16.111917437306104,0.007192846034214619
17.74167,24,15.488535821684163,0.007192846034214619
17.75,25,14.884256200170281,0.007387247278382581
17.75833,23,14.298016269223435,0.006998444790046656
17.76667,23,13.728836818421282,0.006998444790046656
17.775,24,13.177771987626683,0.007192846034214619
17.78333,24,12.643815332262735,0.007192846034214619
17.79167,23,12.12603999542949,0.006998444790046656
17.8,24,11.625369088372466,0.007192846034214619
17.80833,24,11.140851581628946,0.007192846034214619
17.81667,25,10.671612408341549,0.007387247278382581
17.825,24,10.218453406160542,0.007192846034214619
17.83333,24,9.780478390801754,0.007192846034214619
17.84167,25,9.356863423329926,0.007387247278382581
17.85,25,8.948298863304618,0.007387247278382581
17.85833,25,8.553942665286757,0.007387247278382581
17.86667,24,8.17302124742401,0.007192846034214619
17.875,25,7.80612322628736,0.007387247278382581
17.88333,25,7.452459844865934,0.007387247278382581
17.89167,24,7.111306989268591,0.007192846034214619
17.9,24,6.783161113473852,0.007192846034214619
17.90833,24,6.467285747288738,0.007192846034214619
17.91667,24,6.163005230823192,0.007192846034214619
17.925,25,5.870733192665929,0.007387247278382581
17.93333,24,5.589784293073233,0.007192846034214619
17.94167,25,5.319530183180414,0.007387247278382581
17.95,26,5.060310678984265,0.007581648522550544
17.95833,27,4.811490260165091,0.007776049766718507
17.96667,26,4.572486613713687,0.007581648522550544
17.975,27,4.343574361816559,0.007776049766718507
17.98333,28,4.124166339271311,0.00797045101088647
17.99167,29,3.913724862959858,0.008164852255054433
